Mass(Gev)   Energy       Nbound      Beta       Phi(cm^3 s^-1 GeV^-2)   +dPhi             -dPhi            cs(cm^3 s^-1)        +dcs             -dcs
5.0000     0.0317      445.9312     0.9500      9.7171e-17            1.65628e-15        9.57458e-17        1.92318e-12        3.27807e-11        1.89498e-12
6.0000     0.0405      445.9312     0.9500      9.7171e-17            1.65628e-15        9.57458e-17        2.17019e-12        3.69909e-11        2.13836e-12
8.0000     0.0558      445.9312     0.9500      9.7171e-17            1.65628e-15        9.57458e-17        2.80265e-12        4.77711e-11        2.76154e-12
10.0000     0.0675      445.9312     0.9500      9.7171e-17            1.65628e-15        9.57458e-17        3.61681e-12        6.16486e-11        3.56377e-12
15.0000     0.0887      445.9312     0.9500      9.7171e-17            1.65628e-15        9.57458e-17        6.19367e-12        1.05571e-10        6.10283e-12
20.0000     0.1104      445.9312     0.9500      9.7171e-17            1.65628e-15        9.57458e-17        8.84973e-12        1.50844e-10        8.71993e-12
25.0000     0.1209      445.9312     0.9500      9.7171e-17            1.65628e-15        9.57458e-17        1.26255e-11        2.15202e-10        1.24403e-11
30.0000     0.1367      445.9312     0.9500      9.7171e-17            1.65628e-15        9.57458e-17        1.60805e-11        2.74092e-10        1.58446e-11
40.0000     0.1626      445.9312     0.9500      9.7171e-17            1.65628e-15        9.57458e-17        2.40278e-11        4.09554e-10        2.36754e-11
50.0000     0.1759      445.9312     0.9500      9.7171e-17            1.65628e-15        9.57458e-17        3.47097e-11        5.91627e-10        3.42006e-11
60.0000     0.1950      445.9312     0.9500      9.7171e-17            1.65628e-15        9.57458e-17        4.50852e-11        7.68476e-10        4.44239e-11
70.0000     0.2069      445.9312     0.9500      9.7171e-17            1.65628e-15        9.57458e-17        5.78447e-11        9.85963e-10        5.69963e-11
80.0000     0.2257      445.9312     0.9500      9.7171e-17            1.65628e-15        9.57458e-17        6.92543e-11        1.18044e-09        6.82386e-11
90.0000     0.2371      445.9312     0.9500      9.7171e-17            1.65628e-15        9.57458e-17        8.342e-11        1.42189e-09        8.21965e-11
100.0000     0.2486      445.9312     0.9500      9.7171e-17            1.65628e-15        9.57458e-17        9.82523e-11        1.67471e-09        9.68112e-11
110.0000     0.2490      445.9312     0.9500      9.7171e-17            1.65628e-15        9.57458e-17        1.18663e-10        2.02261e-09        1.16922e-10
120.0000     0.2561      445.9312     0.9500      9.7171e-17            1.65628e-15        9.57458e-17        1.37325e-10        2.3407e-09        1.3531e-10
130.0000     0.2643      445.9312     0.9500      9.7171e-17            1.65628e-15        9.57458e-17        1.56182e-10        2.66213e-09        1.53892e-10
140.0000     0.2691      445.9312     0.9500      9.7171e-17            1.65628e-15        9.57458e-17        1.77881e-10        3.03199e-09        1.75272e-10
150.0000     0.2787      445.9312     0.9500      9.7171e-17            1.65628e-15        9.57458e-17        1.97196e-10        3.36121e-09        1.94304e-10
160.0000     0.2882      445.9312     0.9500      9.7171e-17            1.65628e-15        9.57458e-17        2.16957e-10        3.69803e-09        2.13775e-10
180.0000     0.3036      445.9312     0.9500      9.7171e-17            1.65628e-15        9.57458e-17        2.60666e-10        4.44305e-09        2.56843e-10
200.0000     0.3193      445.9312     0.9500      9.7171e-17            1.65628e-15        9.57458e-17        3.05897e-10        5.21402e-09        3.01411e-10
220.0000     0.3301      445.9312     0.9500      9.7171e-17            1.65628e-15        9.57458e-17        3.58056e-10        6.10307e-09        3.52805e-10
240.0000     0.3463      445.9312     0.9500      9.7171e-17            1.65628e-15        9.57458e-17        4.06163e-10        6.92304e-09        4.00205e-10
260.0000     0.3624      445.9312     0.9500      9.7171e-17            1.65628e-15        9.57458e-17        4.55509e-10        7.76414e-09        4.48828e-10
280.0000     0.3725      445.9312     0.9500      9.7171e-17            1.65628e-15        9.57458e-17        5.14059e-10        8.76214e-09        5.0652e-10
300.0000     0.3893      445.9312     0.9500      9.7171e-17            1.65628e-15        9.57458e-17        5.64638e-10        9.62425e-09        5.56356e-10
330.0000     0.4111      445.9312     0.9500      9.7171e-17            1.65628e-15        9.57458e-17        6.46896e-10        1.10263e-08        6.37408e-10
360.0000     0.4330      445.9312     0.9500      9.7171e-17            1.65628e-15        9.57458e-17        7.30945e-10        1.2459e-08        7.20225e-10
400.0000     0.4606      445.9312     0.9500      9.7171e-17            1.65628e-15        9.57458e-17        8.48426e-10        1.44614e-08        8.35982e-10
450.0000     0.4916      445.9312     0.9500      9.7171e-17            1.65628e-15        9.57458e-17        1.006e-09        1.71473e-08        9.91246e-10
500.0000     0.5115      445.9312     0.9500      9.7171e-17            1.65628e-15        9.57458e-17        1.19357e-09        2.03444e-08        1.17606e-09
550.0000     0.5423      445.9312     0.9500      9.7171e-17            1.65628e-15        9.57458e-17        1.36218e-09        2.32184e-08        1.3422e-09
600.0000     0.5731      445.9312     0.9500      9.7171e-17            1.65628e-15        9.57458e-17        1.53398e-09        2.61467e-08        1.51148e-09
650.0000     0.6044      445.9312     0.9500      9.7171e-17            1.65628e-15        9.57458e-17        1.70729e-09        2.91008e-08        1.68225e-09
700.0000     0.6210      445.9312     0.9500      9.7171e-17            1.65628e-15        9.57458e-17        1.92704e-09        3.28465e-08        1.89878e-09
750.0000     0.6520      445.9312     0.9500      9.7171e-17            1.65628e-15        9.57458e-17        2.10682e-09        3.59107e-08        2.07591e-09
800.0000     0.6840      445.9312     0.9500      9.7171e-17            1.65628e-15        9.57458e-17        2.28505e-09        3.89486e-08        2.25153e-09
900.0000     0.7308      445.9312     0.9500      9.7171e-17            1.65628e-15        9.57458e-17        2.70694e-09        4.61397e-08        2.66723e-09
1000.0000     0.7872      445.9312     0.9500      9.7171e-17            1.65628e-15        9.57458e-17        3.10227e-09        5.28782e-08        3.05677e-09
1100.0000     0.8042      445.9312     0.9500      9.7171e-17            1.65628e-15        9.57458e-17        3.67435e-09        6.26293e-08        3.62046e-09
1200.0000     0.8490      445.9312     0.9500      9.7171e-17            1.65628e-15        9.57458e-17        4.14198e-09        7.06e-08        4.08123e-09
1300.0000     0.8934      445.9312     0.9500      9.7171e-17            1.65628e-15        9.57458e-17        4.61962e-09        7.87414e-08        4.55187e-09
1500.0000     0.9607      445.9312     0.9500      9.7171e-17            1.65628e-15        9.57458e-17        5.71958e-09        9.74902e-08        5.63569e-09
1700.0000     1.0249      445.9312     0.9500      9.7171e-17            1.65628e-15        9.57458e-17        6.8864e-09        1.17379e-07        6.78539e-09
2000.0000     1.1285      445.9312     0.9500      9.7171e-17            1.65628e-15        9.57458e-17        8.65629e-09        1.47547e-07        8.52933e-09
2500.0000     1.2380      445.9312     0.9500      9.7171e-17            1.65628e-15        9.57458e-17        1.23289e-08        2.10146e-07        1.21481e-08
3000.0000     1.3603      445.9312     0.9500      9.7171e-17            1.65628e-15        9.57458e-17        1.61578e-08        2.7541e-07        1.59209e-08
4000.0000     1.5574      445.9312     0.9500      9.7171e-17            1.65628e-15        9.57458e-17        2.50904e-08        4.27666e-07        2.47224e-08
5000.0000     1.6869      445.9312     0.9500      9.7171e-17            1.65628e-15        9.57458e-17        3.61939e-08        6.16925e-07        3.5663e-08
6000.0000     1.8209      445.9312     0.9500      9.7171e-17            1.65628e-15        9.57458e-17        4.82837e-08        8.22995e-07        4.75755e-08
7000.0000     1.9217      445.9312     0.9500      9.7171e-17            1.65628e-15        9.57458e-17        6.22705e-08        1.0614e-06        6.13571e-08
8000.0000     2.0297      445.9312     0.9500      9.7171e-17            1.65628e-15        9.57458e-17        7.70062e-08        1.31257e-06        7.58767e-08
9000.0000     2.1115      445.9312     0.9500      9.7171e-17            1.65628e-15        9.57458e-17        9.36849e-08        1.59686e-06        9.23108e-08
10000.0000     2.2205      445.9312     0.9500      9.7171e-17            1.65628e-15        9.57458e-17        1.09982e-07        1.87465e-06        1.08369e-07
12000.0000     2.3067      445.9312     0.9500      9.7171e-17            1.65628e-15        9.57458e-17        1.52456e-07        2.59861e-06        1.5022e-07
15000.0000     2.4632      445.9312     0.9500      9.7171e-17            1.65628e-15        9.57458e-17        2.23079e-07        3.80238e-06        2.19807e-07
20000.0000     2.6583      445.9312     0.9500      9.7171e-17            1.65628e-15        9.57458e-17        3.67479e-07        6.26368e-06        3.62089e-07
30000.0000     2.9224      445.9312     0.9500      9.7171e-17            1.65628e-15        9.57458e-17        7.52107e-07        1.28197e-05        7.41076e-07
50000.0000     3.2355      445.9312     0.9500      9.7171e-17            1.65628e-15        9.57458e-17        1.887e-06        3.21639e-05        1.85932e-06
100000.0000     3.5335      445.9312     0.9500      9.7171e-17            1.65628e-15        9.57458e-17        6.91154e-06        0.000117807        6.81017e-06
