Mass(Gev)   Energy       Nbound      Beta       Phi(cm^3 s^-1 GeV^-2)   +dPhi             -dPhi            cs(cm^3 s^-1)        +dcs             -dcs
5.0000     0.0317      226.5012     0.9503      2.6463e-30            1.84381e-30        1.62955e-30        5.23748e-26        3.64923e-26        3.22517e-26
6.0000     0.0405      226.5012     0.9500      2.6463e-30            1.84381e-30        1.62955e-30        5.91017e-26        4.11792e-26        3.6394e-26
8.0000     0.0558      226.5012     0.9500      2.6463e-30            1.84381e-30        1.62955e-30        7.63257e-26        5.31801e-26        4.70003e-26
10.0000     0.0675      226.5012     0.9500      2.6463e-30            1.84381e-30        1.62955e-30        9.84981e-26        6.86288e-26        6.06537e-26
15.0000     0.0887      226.5012     0.9500      2.6463e-30            1.84381e-30        1.62955e-30        1.68675e-25        1.17525e-25        1.03867e-25
20.0000     0.1104      226.5012     0.9500      2.6463e-30            1.84381e-30        1.62955e-30        2.41008e-25        1.67923e-25        1.48409e-25
25.0000     0.1209      226.5012     0.9500      2.6463e-30            1.84381e-30        1.62955e-30        3.43836e-25        2.39569e-25        2.11729e-25
30.0000     0.1367      226.5012     0.9500      2.6463e-30            1.84381e-30        1.62955e-30        4.37926e-25        3.05126e-25        2.69669e-25
40.0000     0.1626      226.5012     0.9500      2.6463e-30            1.84381e-30        1.62955e-30        6.54359e-25        4.55926e-25        4.02945e-25
50.0000     0.1759      226.5012     0.9500      2.6463e-30            1.84381e-30        1.62955e-30        9.45264e-25        6.58615e-25        5.8208e-25
60.0000     0.1950      226.5012     0.9500      2.6463e-30            1.84381e-30        1.62955e-30        1.22782e-24        8.55488e-25        7.56075e-25
70.0000     0.2069      226.5012     0.9500      2.6463e-30            1.84381e-30        1.62955e-30        1.57531e-24        1.0976e-24        9.70052e-25
80.0000     0.2257      226.5012     0.9500      2.6463e-30            1.84381e-30        1.62955e-30        1.88603e-24        1.3141e-24        1.16139e-24
90.0000     0.2371      226.5012     0.9500      2.6463e-30            1.84381e-30        1.62955e-30        2.27181e-24        1.58289e-24        1.39895e-24
100.0000     0.2486      226.5012     0.9500      2.6463e-30            1.84381e-30        1.62955e-30        2.67574e-24        1.86433e-24        1.64769e-24
110.0000     0.2490      226.5012     0.9500      2.6463e-30            1.84381e-30        1.62955e-30        3.23159e-24        2.25162e-24        1.98997e-24
120.0000     0.2561      226.5012     0.9500      2.6463e-30            1.84381e-30        1.62955e-30        3.73982e-24        2.60573e-24        2.30293e-24
130.0000     0.2643      226.5012     0.9500      2.6463e-30            1.84381e-30        1.62955e-30        4.25338e-24        2.96355e-24        2.61917e-24
140.0000     0.2691      226.5012     0.9500      2.6463e-30            1.84381e-30        1.62955e-30        4.84431e-24        3.37529e-24        2.98306e-24
150.0000     0.2787      226.5012     0.9500      2.6463e-30            1.84381e-30        1.62955e-30        5.37033e-24        3.74179e-24        3.30697e-24
160.0000     0.2882      226.5012     0.9500      2.6463e-30            1.84381e-30        1.62955e-30        5.90847e-24        4.11674e-24        3.63835e-24
180.0000     0.3036      226.5012     0.9500      2.6463e-30            1.84381e-30        1.62955e-30        7.09882e-24        4.94612e-24        4.37135e-24
200.0000     0.3193      226.5012     0.9500      2.6463e-30            1.84381e-30        1.62955e-30        8.33062e-24        5.80438e-24        5.12988e-24
220.0000     0.3301      226.5012     0.9500      2.6463e-30            1.84381e-30        1.62955e-30        9.75109e-24        6.7941e-24        6.00458e-24
240.0000     0.3463      226.5012     0.9500      2.6463e-30            1.84381e-30        1.62955e-30        1.10612e-23        7.70691e-24        6.81132e-24
260.0000     0.3624      226.5012     0.9500      2.6463e-30            1.84381e-30        1.62955e-30        1.2405e-23        8.64325e-24        7.63885e-24
280.0000     0.3725      226.5012     0.9500      2.6463e-30            1.84381e-30        1.62955e-30        1.39996e-23        9.75424e-24        8.62074e-24
300.0000     0.3893      226.5012     0.9500      2.6463e-30            1.84381e-30        1.62955e-30        1.5377e-23        1.0714e-23        9.46894e-24
330.0000     0.4111      226.5012     0.9500      2.6463e-30            1.84381e-30        1.62955e-30        1.76172e-23        1.22748e-23        1.08484e-23
360.0000     0.4330      226.5012     0.9500      2.6463e-30            1.84381e-30        1.62955e-30        1.99061e-23        1.38696e-23        1.22579e-23
400.0000     0.4606      226.5012     0.9500      2.6463e-30            1.84381e-30        1.62955e-30        2.31055e-23        1.60988e-23        1.4228e-23
450.0000     0.4916      226.5012     0.9500      2.6463e-30            1.84381e-30        1.62955e-30        2.73968e-23        1.90888e-23        1.68706e-23
500.0000     0.5115      226.5012     0.9500      2.6463e-30            1.84381e-30        1.62955e-30        3.25049e-23        2.26479e-23        2.00161e-23
550.0000     0.5423      226.5012     0.9500      2.6463e-30            1.84381e-30        1.62955e-30        3.70968e-23        2.58473e-23        2.28437e-23
600.0000     0.5731      226.5012     0.9500      2.6463e-30            1.84381e-30        1.62955e-30        4.17755e-23        2.91072e-23        2.57248e-23
650.0000     0.6044      226.5012     0.9500      2.6463e-30            1.84381e-30        1.62955e-30        4.64954e-23        3.23958e-23        2.86312e-23
700.0000     0.6210      226.5012     0.9500      2.6463e-30            1.84381e-30        1.62955e-30        5.248e-23        3.65656e-23        3.23164e-23
750.0000     0.6520      226.5012     0.9500      2.6463e-30            1.84381e-30        1.62955e-30        5.73758e-23        3.99767e-23        3.53312e-23
800.0000     0.6840      226.5012     0.9500      2.6463e-30            1.84381e-30        1.62955e-30        6.22296e-23        4.33586e-23        3.83201e-23
900.0000     0.7308      226.5012     0.9500      2.6463e-30            1.84381e-30        1.62955e-30        7.37191e-23        5.13639e-23        4.53951e-23
1000.0000     0.7872      226.5012     0.9500      2.6463e-30            1.84381e-30        1.62955e-30        8.44854e-23        5.88654e-23        5.20249e-23
1100.0000     0.8042      226.5012     0.9500      2.6463e-30            1.84381e-30        1.62955e-30        1.00065e-22        6.97206e-23        6.16186e-23
1200.0000     0.8490      226.5012     0.9500      2.6463e-30            1.84381e-30        1.62955e-30        1.128e-22        7.85938e-23        6.94607e-23
1300.0000     0.8934      226.5012     0.9500      2.6463e-30            1.84381e-30        1.62955e-30        1.25808e-22        8.7657e-23        7.74708e-23
1500.0000     0.9607      226.5012     0.9500      2.6463e-30            1.84381e-30        1.62955e-30        1.55764e-22        1.08529e-22        9.5917e-23
1700.0000     1.0249      226.5012     0.9500      2.6463e-30            1.84381e-30        1.62955e-30        1.8754e-22        1.30669e-22        1.15484e-22
2000.0000     1.1285      226.5012     0.9500      2.6463e-30            1.84381e-30        1.62955e-30        2.3574e-22        1.64253e-22        1.45166e-22
2500.0000     1.2380      226.5012     0.9500      2.6463e-30            1.84381e-30        1.62955e-30        3.35758e-22        2.3394e-22        2.06755e-22
3000.0000     1.3603      226.5012     0.9500      2.6463e-30            1.84381e-30        1.62955e-30        4.40033e-22        3.06594e-22        2.70966e-22
4000.0000     1.5574      226.5012     0.9500      2.6463e-30            1.84381e-30        1.62955e-30        6.83298e-22        4.7609e-22        4.20765e-22
5000.0000     1.6869      226.5012     0.9500      2.6463e-30            1.84381e-30        1.62955e-30        9.85682e-22        6.86777e-22        6.06969e-22
6000.0000     1.8209      226.5012     0.9500      2.6463e-30            1.84381e-30        1.62955e-30        1.31493e-21        9.1618e-22        8.09714e-22
7000.0000     1.9217      226.5012     0.9500      2.6463e-30            1.84381e-30        1.62955e-30        1.69584e-21        1.18158e-21        1.04427e-21
8000.0000     2.0297      226.5012     0.9500      2.6463e-30            1.84381e-30        1.62955e-30        2.09714e-21        1.46119e-21        1.29139e-21
9000.0000     2.1115      226.5012     0.9500      2.6463e-30            1.84381e-30        1.62955e-30        2.55136e-21        1.77766e-21        1.57109e-21
10000.0000     2.2205      226.5012     0.9500      2.6463e-30            1.84381e-30        1.62955e-30        2.99519e-21        2.0869e-21        1.84439e-21
12000.0000     2.3067      226.5012     0.9500      2.6463e-30            1.84381e-30        1.62955e-30        4.15189e-21        2.89284e-21        2.55668e-21
15000.0000     2.4632      226.5012     0.9500      2.6463e-30            1.84381e-30        1.62955e-30        6.07521e-21        4.23291e-21        3.74102e-21
20000.0000     2.6583      226.5012     0.9500      2.6463e-30            1.84381e-30        1.62955e-30        1.00077e-20        6.9729e-21        6.1626e-21
30000.0000     2.9224      226.5012     0.9500      2.6463e-30            1.84381e-30        1.62955e-30        2.04824e-20        1.42712e-20        1.26128e-20
50000.0000     3.2355      226.5012     0.9500      2.6463e-30            1.84381e-30        1.62955e-30        5.13894e-20        3.58057e-20        3.16449e-20
100000.0000     3.5335      226.5012     0.9500      2.6463e-30            1.84381e-30        1.62955e-30        1.88225e-19        1.31146e-19        1.15906e-19
