Mass(Gev)   Energy       Nbound      Beta       Phi(cm^3 s^-1 GeV^-2)   +dPhi             -dPhi            cs(cm^3 s^-1)        +dcs             -dcs
5.0000     0.0317      233.8012     0.9502      5.19613e-17            1.14014e-16        9.69938e-17        1.02841e-12        2.25654e-12        1.91968e-12
6.0000     0.0405      233.8012     0.9500      5.19613e-17            1.14014e-16        9.69938e-17        1.16049e-12        2.54636e-12        2.16623e-12
8.0000     0.0558      233.8012     0.9500      5.19613e-17            1.14014e-16        9.69938e-17        1.49869e-12        3.28844e-12        2.79754e-12
10.0000     0.0675      233.8012     0.9500      5.19613e-17            1.14014e-16        9.69938e-17        1.93406e-12        4.24373e-12        3.61022e-12
15.0000     0.0887      233.8012     0.9500      5.19613e-17            1.14014e-16        9.69938e-17        3.31201e-12        7.26724e-12        6.18238e-12
20.0000     0.1104      233.8012     0.9500      5.19613e-17            1.14014e-16        9.69938e-17        4.73231e-12        1.03837e-11        8.83359e-12
25.0000     0.1209      233.8012     0.9500      5.19613e-17            1.14014e-16        9.69938e-17        6.75139e-12        1.4814e-11        1.26025e-11
30.0000     0.1367      233.8012     0.9500      5.19613e-17            1.14014e-16        9.69938e-17        8.59889e-12        1.88678e-11        1.60512e-11
40.0000     0.1626      233.8012     0.9500      5.19613e-17            1.14014e-16        9.69938e-17        1.28486e-11        2.81926e-11        2.3984e-11
50.0000     0.1759      233.8012     0.9500      5.19613e-17            1.14014e-16        9.69938e-17        1.85607e-11        4.07261e-11        3.46464e-11
60.0000     0.1950      233.8012     0.9500      5.19613e-17            1.14014e-16        9.69938e-17        2.41089e-11        5.28999e-11        4.50029e-11
70.0000     0.2069      233.8012     0.9500      5.19613e-17            1.14014e-16        9.69938e-17        3.09319e-11        6.78711e-11        5.77392e-11
80.0000     0.2257      233.8012     0.9500      5.19613e-17            1.14014e-16        9.69938e-17        3.70331e-11        8.12584e-11        6.9128e-11
90.0000     0.2371      233.8012     0.9500      5.19613e-17            1.14014e-16        9.69938e-17        4.46081e-11        9.78795e-11        8.32679e-11
100.0000     0.2486      233.8012     0.9500      5.19613e-17            1.14014e-16        9.69938e-17        5.25395e-11        1.15283e-10        9.80731e-11
110.0000     0.2490      233.8012     0.9500      5.19613e-17            1.14014e-16        9.69938e-17        6.34538e-11        1.39231e-10        1.18446e-10
120.0000     0.2561      233.8012     0.9500      5.19613e-17            1.14014e-16        9.69938e-17        7.34331e-11        1.61128e-10        1.37074e-10
130.0000     0.2643      233.8012     0.9500      5.19613e-17            1.14014e-16        9.69938e-17        8.35171e-11        1.83254e-10        1.55897e-10
140.0000     0.2691      233.8012     0.9500      5.19613e-17            1.14014e-16        9.69938e-17        9.51204e-11        2.08714e-10        1.77557e-10
150.0000     0.2787      233.8012     0.9500      5.19613e-17            1.14014e-16        9.69938e-17        1.05449e-10        2.31377e-10        1.96837e-10
160.0000     0.2882      233.8012     0.9500      5.19613e-17            1.14014e-16        9.69938e-17        1.16016e-10        2.54563e-10        2.16561e-10
180.0000     0.3036      233.8012     0.9500      5.19613e-17            1.14014e-16        9.69938e-17        1.39389e-10        3.05848e-10        2.60191e-10
200.0000     0.3193      233.8012     0.9500      5.19613e-17            1.14014e-16        9.69938e-17        1.63576e-10        3.5892e-10        3.05339e-10
220.0000     0.3301      233.8012     0.9500      5.19613e-17            1.14014e-16        9.69938e-17        1.91467e-10        4.20119e-10        3.57403e-10
240.0000     0.3463      233.8012     0.9500      5.19613e-17            1.14014e-16        9.69938e-17        2.17192e-10        4.76564e-10        4.05422e-10
260.0000     0.3624      233.8012     0.9500      5.19613e-17            1.14014e-16        9.69938e-17        2.43579e-10        5.34464e-10        4.54678e-10
280.0000     0.3725      233.8012     0.9500      5.19613e-17            1.14014e-16        9.69938e-17        2.74889e-10        6.03163e-10        5.13122e-10
300.0000     0.3893      233.8012     0.9500      5.19613e-17            1.14014e-16        9.69938e-17        3.01935e-10        6.62509e-10        5.63608e-10
330.0000     0.4111      233.8012     0.9500      5.19613e-17            1.14014e-16        9.69938e-17        3.45922e-10        7.59025e-10        6.45716e-10
360.0000     0.4330      233.8012     0.9500      5.19613e-17            1.14014e-16        9.69938e-17        3.90866e-10        8.57643e-10        7.29612e-10
400.0000     0.4606      233.8012     0.9500      5.19613e-17            1.14014e-16        9.69938e-17        4.53688e-10        9.95487e-10        8.46878e-10
450.0000     0.4916      233.8012     0.9500      5.19613e-17            1.14014e-16        9.69938e-17        5.3795e-10        1.18038e-09        1.00417e-09
500.0000     0.5115      233.8012     0.9500      5.19613e-17            1.14014e-16        9.69938e-17        6.3825e-10        1.40045e-09        1.19139e-09
550.0000     0.5423      233.8012     0.9500      5.19613e-17            1.14014e-16        9.69938e-17        7.28414e-10        1.59829e-09        1.3597e-09
600.0000     0.5731      233.8012     0.9500      5.19613e-17            1.14014e-16        9.69938e-17        8.20282e-10        1.79987e-09        1.53118e-09
650.0000     0.6044      233.8012     0.9500      5.19613e-17            1.14014e-16        9.69938e-17        9.12959e-10        2.00322e-09        1.70418e-09
700.0000     0.6210      233.8012     0.9500      5.19613e-17            1.14014e-16        9.69938e-17        1.03047e-09        2.26107e-09        1.92353e-09
750.0000     0.6520      233.8012     0.9500      5.19613e-17            1.14014e-16        9.69938e-17        1.1266e-09        2.472e-09        2.10297e-09
800.0000     0.6840      233.8012     0.9500      5.19613e-17            1.14014e-16        9.69938e-17        1.22191e-09        2.68112e-09        2.28088e-09
900.0000     0.7308      233.8012     0.9500      5.19613e-17            1.14014e-16        9.69938e-17        1.44751e-09        3.17614e-09        2.702e-09
1000.0000     0.7872      233.8012     0.9500      5.19613e-17            1.14014e-16        9.69938e-17        1.65891e-09        3.64e-09        3.09662e-09
1100.0000     0.8042      233.8012     0.9500      5.19613e-17            1.14014e-16        9.69938e-17        1.96483e-09        4.31124e-09        3.66765e-09
1200.0000     0.8490      233.8012     0.9500      5.19613e-17            1.14014e-16        9.69938e-17        2.21489e-09        4.85992e-09        4.13442e-09
1300.0000     0.8934      233.8012     0.9500      5.19613e-17            1.14014e-16        9.69938e-17        2.4703e-09        5.42036e-09        4.6112e-09
1500.0000     0.9607      233.8012     0.9500      5.19613e-17            1.14014e-16        9.69938e-17        3.05849e-09        6.71097e-09        5.70915e-09
1700.0000     1.0249      233.8012     0.9500      5.19613e-17            1.14014e-16        9.69938e-17        3.68244e-09        8.08004e-09        6.87384e-09
2000.0000     1.1285      233.8012     0.9500      5.19613e-17            1.14014e-16        9.69938e-17        4.62887e-09        1.01567e-08        8.64051e-09
2500.0000     1.2380      233.8012     0.9500      5.19613e-17            1.14014e-16        9.69938e-17        6.59277e-09        1.44659e-08        1.23064e-08
3000.0000     1.3603      233.8012     0.9500      5.19613e-17            1.14014e-16        9.69938e-17        8.64026e-09        1.89585e-08        1.61284e-08
4000.0000     1.5574      233.8012     0.9500      5.19613e-17            1.14014e-16        9.69938e-17        1.34169e-08        2.94395e-08        2.50447e-08
5000.0000     1.6869      233.8012     0.9500      5.19613e-17            1.14014e-16        9.69938e-17        1.93543e-08        4.24675e-08        3.61279e-08
6000.0000     1.8209      233.8012     0.9500      5.19613e-17            1.14014e-16        9.69938e-17        2.58192e-08        5.66528e-08        4.81956e-08
7000.0000     1.9217      233.8012     0.9500      5.19613e-17            1.14014e-16        9.69938e-17        3.32986e-08        7.3064e-08        6.21569e-08
8000.0000     2.0297      233.8012     0.9500      5.19613e-17            1.14014e-16        9.69938e-17        4.11783e-08        9.03539e-08        7.68657e-08
9000.0000     2.1115      233.8012     0.9500      5.19613e-17            1.14014e-16        9.69938e-17        5.00971e-08        1.09924e-07        9.3514e-08
10000.0000     2.2205      233.8012     0.9500      5.19613e-17            1.14014e-16        9.69938e-17        5.8812e-08        1.29046e-07        1.09782e-07
12000.0000     2.3067      233.8012     0.9500      5.19613e-17            1.14014e-16        9.69938e-17        8.15244e-08        1.78882e-07        1.52178e-07
15000.0000     2.4632      233.8012     0.9500      5.19613e-17            1.14014e-16        9.69938e-17        1.1929e-07        2.61746e-07        2.22672e-07
20000.0000     2.6583      233.8012     0.9500      5.19613e-17            1.14014e-16        9.69938e-17        1.96506e-07        4.31176e-07        3.66809e-07
30000.0000     2.9224      233.8012     0.9500      5.19613e-17            1.14014e-16        9.69938e-17        4.02182e-07        8.82473e-07        7.50736e-07
50000.0000     3.2355      233.8012     0.9500      5.19613e-17            1.14014e-16        9.69938e-17        1.00906e-06        2.21408e-06        1.88356e-06
100000.0000     3.5335      233.8012     0.9500      5.19613e-17            1.14014e-16        9.69938e-17        3.69588e-06        8.10955e-06        6.89894e-06
