Mass(Gev)   Energy       Nbound      Beta       Phi(cm^3 s^-1 GeV^-2)   +dPhi             -dPhi            cs(cm^3 s^-1)        +dcs             -dcs
5.0000     0.4106      445.9312     0.9500      4.59371e-30            9.19074e-30        3.42363e-30        7.02879e-27        1.40627e-26        5.23846e-27
6.0000     0.5772      445.9312     0.9500      4.59371e-30            9.19074e-30        3.42363e-30        7.20046e-27        1.44061e-26        5.36641e-27
8.0000     0.8456      445.9312     0.9500      4.59371e-30            9.19074e-30        3.42363e-30        8.73838e-27        1.74831e-26        6.5126e-27
10.0000     1.0265      445.9312     0.9500      4.59371e-30            9.19074e-30        3.42363e-30        1.12469e-26        2.2502e-26        8.38218e-27
15.0000     1.2878      445.9312     0.9500      4.59371e-30            9.19074e-30        3.42363e-30        2.01711e-26        4.03569e-26        1.50333e-26
20.0000     1.5234      445.9312     0.9500      4.59371e-30            9.19074e-30        3.42363e-30        3.03152e-26        6.06523e-26        2.25935e-26
25.0000     1.5983      445.9312     0.9500      4.59371e-30            9.19074e-30        3.42363e-30        4.51463e-26        9.03252e-26        3.36469e-26
30.0000     1.7309      445.9312     0.9500      4.59371e-30            9.19074e-30        3.42363e-30        6.00297e-26        1.20103e-25        4.47393e-26
40.0000     1.9027      445.9312     0.9500      4.59371e-30            9.19074e-30        3.42363e-30        9.70873e-26        1.94245e-25        7.23579e-26
50.0000     1.9585      445.9312     0.9500      4.59371e-30            9.19074e-30        3.42363e-30        1.47377e-25        2.94861e-25        1.09838e-25
60.0000     2.0509      445.9312     0.9500      4.59371e-30            9.19074e-30        3.42363e-30        2.02659e-25        4.05464e-25        1.51039e-25
70.0000     2.0953      445.9312     0.9500      4.59371e-30            9.19074e-30        3.42363e-30        2.69998e-25        5.40191e-25        2.01226e-25
80.0000     2.1677      445.9312     0.9500      4.59371e-30            9.19074e-30        3.42363e-30        3.40859e-25        6.81965e-25        2.54038e-25
90.0000     2.2023      445.9312     0.9500      4.59371e-30            9.19074e-30        3.42363e-30        4.24629e-25        8.49564e-25        3.1647e-25
100.0000     2.2332      445.9312     0.9500      4.59371e-30            9.19074e-30        3.42363e-30        5.16989e-25        1.03435e-24        3.85305e-25
110.0000     2.2340      445.9312     0.9500      4.59371e-30            9.19074e-30        3.42363e-30        6.25322e-25        1.2511e-24        4.66044e-25
120.0000     2.2570      445.9312     0.9500      4.59371e-30            9.19074e-30        3.42363e-30        7.36596e-25        1.47373e-24        5.48976e-25
130.0000     2.2784      445.9312     0.9500      4.59371e-30            9.19074e-30        3.42363e-30        8.56379e-25        1.71338e-24        6.38248e-25
140.0000     2.2834      445.9312     0.9500      4.59371e-30            9.19074e-30        3.42363e-30        9.90997e-25        1.98271e-24        7.38577e-25
150.0000     2.2998      445.9312     0.9500      4.59371e-30            9.19074e-30        3.42363e-30        1.12951e-24        2.25984e-24        8.41811e-25
160.0000     2.3056      445.9312     0.9500      4.59371e-30            9.19074e-30        3.42363e-30        1.28194e-24        2.56481e-24        9.55415e-25
180.0000     2.3131      445.9312     0.9500      4.59371e-30            9.19074e-30        3.42363e-30        1.61713e-24        3.23543e-24        1.20523e-24
200.0000     2.3119      445.9312     0.9500      4.59371e-30            9.19074e-30        3.42363e-30        1.99755e-24        3.99655e-24        1.48875e-24
220.0000     2.3214      445.9312     0.9500      4.59371e-30            9.19074e-30        3.42363e-30        2.40711e-24        4.81596e-24        1.79399e-24
240.0000     2.3113      445.9312     0.9500      4.59371e-30            9.19074e-30        3.42363e-30        2.87723e-24        5.75655e-24        2.14437e-24
260.0000     2.2903      445.9312     0.9500      4.59371e-30            9.19074e-30        3.42363e-30        3.4077e-24        6.81786e-24        2.53971e-24
280.0000     2.3002      445.9312     0.9500      4.59371e-30            9.19074e-30        3.42363e-30        3.93512e-24        7.87309e-24        2.9328e-24
300.0000     2.2733      445.9312     0.9500      4.59371e-30            9.19074e-30        3.42363e-30        4.57077e-24        9.14485e-24        3.40654e-24
330.0000     2.2424      445.9312     0.9500      4.59371e-30            9.19074e-30        3.42363e-30        5.60675e-24        1.12175e-23        4.17864e-24
360.0000     2.2052      445.9312     0.9500      4.59371e-30            9.19074e-30        3.42363e-30        6.78528e-24        1.35755e-23        5.05698e-24
400.0000     2.1674      445.9312     0.9500      4.59371e-30            9.19074e-30        3.42363e-30        8.52291e-24        1.7052e-23        6.35201e-24
450.0000     2.1255      445.9312     0.9500      4.59371e-30            9.19074e-30        3.42363e-30        1.09995e-23        2.20069e-23        8.19776e-24
500.0000     2.1445      445.9312     0.9500      4.59371e-30            9.19074e-30        3.42363e-30        1.34589e-23        2.69275e-23        1.00307e-23
550.0000     2.0992      445.9312     0.9500      4.59371e-30            9.19074e-30        3.42363e-30        1.66368e-23        3.32857e-23        1.23992e-23
600.0000     2.0500      445.9312     0.9500      4.59371e-30            9.19074e-30        3.42363e-30        2.02747e-23        4.05641e-23        1.51105e-23
650.0000     1.9984      445.9312     0.9500      4.59371e-30            9.19074e-30        3.42363e-30        2.44085e-23        4.88347e-23        1.81913e-23
700.0000     2.0148      445.9312     0.9500      4.59371e-30            9.19074e-30        3.42363e-30        2.80775e-23        5.61753e-23        2.09258e-23
750.0000     1.9629      445.9312     0.9500      4.59371e-30            9.19074e-30        3.42363e-30        3.30843e-23        6.61926e-23        2.46573e-23
800.0000     1.9106      445.9312     0.9500      4.59371e-30            9.19074e-30        3.42363e-30        3.8674e-23        7.73761e-23        2.88233e-23
900.0000     1.8739      445.9312     0.9500      4.59371e-30            9.19074e-30        3.42363e-30        4.99038e-23        9.98437e-23        3.71927e-23
1000.0000     1.9280      445.9312     0.9500      4.59371e-30            9.19074e-30        3.42363e-30        5.98809e-23        1.19805e-22        4.46285e-23
1100.0000     1.8636      445.9312     0.9500      4.59371e-30            9.19074e-30        3.42363e-30        7.49596e-23        1.49973e-22        5.58664e-23
1200.0000     1.8281      445.9312     0.9500      4.59371e-30            9.19074e-30        3.42363e-30        9.094e-23        1.81946e-22        6.77764e-23
1300.0000     1.7945      445.9312     0.9500      4.59371e-30            9.19074e-30        3.42363e-30        1.08731e-22        2.1754e-22        8.10355e-23
1500.0000     1.7857      445.9312     0.9500      4.59371e-30            9.19074e-30        3.42363e-30        1.45471e-22        2.91048e-22        1.08418e-22
1700.0000     1.7763      445.9312     0.9500      4.59371e-30            9.19074e-30        3.42363e-30        1.87834e-22        3.75804e-22        1.3999e-22
2000.0000     1.7452      445.9312     0.9500      4.59371e-30            9.19074e-30        3.42363e-30        2.64614e-22        5.29419e-22        1.97213e-22
2500.0000     1.7930      445.9312     0.9500      4.59371e-30            9.19074e-30        3.42363e-30        4.02436e-22        8.05164e-22        2.99931e-22
3000.0000     1.8055      445.9312     0.9500      4.59371e-30            9.19074e-30        3.42363e-30        5.75513e-22        1.15144e-21        4.28922e-22
4000.0000     1.8675      445.9312     0.9500      4.59371e-30            9.19074e-30        3.42363e-30        9.89159e-22        1.97903e-21        7.37207e-22
5000.0000     1.9621      445.9312     0.9500      4.59371e-30            9.19074e-30        3.42363e-30        1.47101e-21        2.94307e-21        1.09632e-21
6000.0000     2.0338      445.9312     0.9500      4.59371e-30            9.19074e-30        3.42363e-30        2.04361e-21        4.0887e-21        1.52308e-21
7000.0000     2.1103      445.9312     0.9500      4.59371e-30            9.19074e-30        3.42363e-30        2.68072e-21        5.36338e-21        1.99791e-21
8000.0000     2.1733      445.9312     0.9500      4.59371e-30            9.19074e-30        3.42363e-30        3.39993e-21        6.80232e-21        2.53393e-21
9000.0000     2.2378      445.9312     0.9500      4.59371e-30            9.19074e-30        3.42363e-30        4.17887e-21        8.36077e-21        3.11446e-21
10000.0000     2.3500      445.9312     0.9500      4.59371e-30            9.19074e-30        3.42363e-30        4.91288e-21        9.82932e-21        3.66151e-21
12000.0000     2.4084      445.9312     0.9500      4.59371e-30            9.19074e-30        3.42363e-30        6.90312e-21        1.38112e-20        5.1448e-21
15000.0000     2.5455      445.9312     0.9500      4.59371e-30            9.19074e-30        3.42363e-30        1.0205e-20        2.04174e-20        7.60567e-21
20000.0000     2.7199      445.9312     0.9500      4.59371e-30            9.19074e-30        3.42363e-30        1.69791e-20        3.39704e-20        1.26543e-20
30000.0000     2.9704      445.9312     0.9500      4.59371e-30            9.19074e-30        3.42363e-30        3.49808e-20        6.99868e-20        2.60707e-20
50000.0000     3.2676      445.9312     0.9500      4.59371e-30            9.19074e-30        3.42363e-30        8.83321e-20        1.76728e-19        6.58328e-20
100000.0000     3.5459      445.9312     0.9500      4.59371e-30            9.19074e-30        3.42363e-30        3.25592e-19        6.51419e-19        2.42659e-19
