Mass(Gev)   Energy       Nbound      Beta       Phi(cm^3 s^-1 GeV^-2)   +dPhi             -dPhi            cs(cm^3 s^-1)        +dcs             -dcs
5.0000     0.4106      233.8012     0.9502      5.19613e-17            1.14014e-16        9.69938e-17        7.95055e-14        1.74452e-13        1.48409e-13
6.0000     0.5772      233.8012     0.9500      5.19613e-17            1.14014e-16        9.69938e-17        8.14474e-14        1.78713e-13        1.52034e-13
8.0000     0.8456      233.8012     0.9500      5.19613e-17            1.14014e-16        9.69938e-17        9.88434e-14        2.16883e-13        1.84507e-13
10.0000     1.0265      233.8012     0.9500      5.19613e-17            1.14014e-16        9.69938e-17        1.27219e-13        2.79144e-13        2.37473e-13
15.0000     1.2878      233.8012     0.9500      5.19613e-17            1.14014e-16        9.69938e-17        2.28164e-13        5.0064e-13        4.25903e-13
20.0000     1.5234      233.8012     0.9500      5.19613e-17            1.14014e-16        9.69938e-17        3.42907e-13        7.52411e-13        6.40089e-13
25.0000     1.5983      233.8012     0.9500      5.19613e-17            1.14014e-16        9.69938e-17        5.10668e-13        1.12051e-12        9.5324e-13
30.0000     1.7309      233.8012     0.9500      5.19613e-17            1.14014e-16        9.69938e-17        6.7902e-13        1.48991e-12        1.2675e-12
40.0000     1.9027      233.8012     0.9500      5.19613e-17            1.14014e-16        9.69938e-17        1.09819e-12        2.40967e-12        2.04995e-12
50.0000     1.9585      233.8012     0.9500      5.19613e-17            1.14014e-16        9.69938e-17        1.66705e-12        3.65785e-12        3.1118e-12
60.0000     2.0509      233.8012     0.9500      5.19613e-17            1.14014e-16        9.69938e-17        2.29236e-12        5.02991e-12        4.27904e-12
70.0000     2.0953      233.8012     0.9500      5.19613e-17            1.14014e-16        9.69938e-17        3.05406e-12        6.70124e-12        5.70087e-12
80.0000     2.1677      233.8012     0.9500      5.19613e-17            1.14014e-16        9.69938e-17        3.8556e-12        8.46e-12        7.19707e-12
90.0000     2.2023      233.8012     0.9500      5.19613e-17            1.14014e-16        9.69938e-17        4.80315e-12        1.05391e-11        8.96582e-12
100.0000     2.2332      233.8012     0.9500      5.19613e-17            1.14014e-16        9.69938e-17        5.84788e-12        1.28315e-11        1.0916e-11
110.0000     2.2340      233.8012     0.9500      5.19613e-17            1.14014e-16        9.69938e-17        7.07327e-12        1.55202e-11        1.32033e-11
120.0000     2.2570      233.8012     0.9500      5.19613e-17            1.14014e-16        9.69938e-17        8.33195e-12        1.8282e-11        1.55529e-11
130.0000     2.2784      233.8012     0.9500      5.19613e-17            1.14014e-16        9.69938e-17        9.68686e-12        2.1255e-11        1.8082e-11
140.0000     2.2834      233.8012     0.9500      5.19613e-17            1.14014e-16        9.69938e-17        1.12096e-11        2.45962e-11        2.09244e-11
150.0000     2.2998      233.8012     0.9500      5.19613e-17            1.14014e-16        9.69938e-17        1.27764e-11        2.80341e-11        2.38491e-11
160.0000     2.3056      233.8012     0.9500      5.19613e-17            1.14014e-16        9.69938e-17        1.45006e-11        3.18173e-11        2.70676e-11
180.0000     2.3131      233.8012     0.9500      5.19613e-17            1.14014e-16        9.69938e-17        1.8292e-11        4.01365e-11        3.41449e-11
200.0000     2.3119      233.8012     0.9500      5.19613e-17            1.14014e-16        9.69938e-17        2.25951e-11        4.95785e-11        4.21773e-11
220.0000     2.3214      233.8012     0.9500      5.19613e-17            1.14014e-16        9.69938e-17        2.72278e-11        5.97435e-11        5.08249e-11
240.0000     2.3113      233.8012     0.9500      5.19613e-17            1.14014e-16        9.69938e-17        3.25456e-11        7.14118e-11        6.07514e-11
260.0000     2.2903      233.8012     0.9500      5.19613e-17            1.14014e-16        9.69938e-17        3.85459e-11        8.45777e-11        7.19518e-11
280.0000     2.3002      233.8012     0.9500      5.19613e-17            1.14014e-16        9.69938e-17        4.45118e-11        9.76682e-11        8.30881e-11
300.0000     2.2733      233.8012     0.9500      5.19613e-17            1.14014e-16        9.69938e-17        5.17019e-11        1.13445e-10        9.65095e-11
330.0000     2.2424      233.8012     0.9500      5.19613e-17            1.14014e-16        9.69938e-17        6.34202e-11        1.39157e-10        1.18384e-10
360.0000     2.2052      233.8012     0.9500      5.19613e-17            1.14014e-16        9.69938e-17        7.67511e-11        1.68408e-10        1.43268e-10
400.0000     2.1674      233.8012     0.9500      5.19613e-17            1.14014e-16        9.69938e-17        9.64061e-11        2.11535e-10        1.79957e-10
450.0000     2.1255      233.8012     0.9500      5.19613e-17            1.14014e-16        9.69938e-17        1.24419e-10        2.73002e-10        2.32248e-10
500.0000     2.1445      233.8012     0.9500      5.19613e-17            1.14014e-16        9.69938e-17        1.52239e-10        3.34045e-10        2.84178e-10
550.0000     2.0992      233.8012     0.9500      5.19613e-17            1.14014e-16        9.69938e-17        1.88186e-10        4.1292e-10        3.51278e-10
600.0000     2.0500      233.8012     0.9500      5.19613e-17            1.14014e-16        9.69938e-17        2.29336e-10        5.03211e-10        4.28091e-10
650.0000     1.9984      233.8012     0.9500      5.19613e-17            1.14014e-16        9.69938e-17        2.76095e-10        6.0581e-10        5.15373e-10
700.0000     2.0148      233.8012     0.9500      5.19613e-17            1.14014e-16        9.69938e-17        3.17596e-10        6.96873e-10        5.92842e-10
750.0000     1.9629      233.8012     0.9500      5.19613e-17            1.14014e-16        9.69938e-17        3.74231e-10        8.21141e-10        6.98559e-10
800.0000     1.9106      233.8012     0.9500      5.19613e-17            1.14014e-16        9.69938e-17        4.37458e-10        9.59875e-10        8.16583e-10
900.0000     1.8739      233.8012     0.9500      5.19613e-17            1.14014e-16        9.69938e-17        5.64483e-10        1.23859e-09        1.05369e-09
1000.0000     1.9280      233.8012     0.9500      5.19613e-17            1.14014e-16        9.69938e-17        6.77338e-10        1.48622e-09        1.26436e-09
1100.0000     1.8636      233.8012     0.9500      5.19613e-17            1.14014e-16        9.69938e-17        8.47899e-10        1.86047e-09        1.58273e-09
1200.0000     1.8281      233.8012     0.9500      5.19613e-17            1.14014e-16        9.69938e-17        1.02866e-09        2.2571e-09        1.92015e-09
1300.0000     1.7945      233.8012     0.9500      5.19613e-17            1.14014e-16        9.69938e-17        1.2299e-09        2.69865e-09        2.29579e-09
1500.0000     1.7857      233.8012     0.9500      5.19613e-17            1.14014e-16        9.69938e-17        1.64549e-09        3.61054e-09        3.07155e-09
1700.0000     1.7763      233.8012     0.9500      5.19613e-17            1.14014e-16        9.69938e-17        2.12467e-09        4.66196e-09        3.96602e-09
2000.0000     1.7452      233.8012     0.9500      5.19613e-17            1.14014e-16        9.69938e-17        2.99315e-09        6.56761e-09        5.58718e-09
2500.0000     1.7930      233.8012     0.9500      5.19613e-17            1.14014e-16        9.69938e-17        4.55212e-09        9.98831e-09        8.49724e-09
3000.0000     1.8055      233.8012     0.9500      5.19613e-17            1.14014e-16        9.69938e-17        6.50986e-09        1.4284e-08        1.21517e-08
4000.0000     1.8675      233.8012     0.9500      5.19613e-17            1.14014e-16        9.69938e-17        1.11888e-08        2.45505e-08        2.08856e-08
5000.0000     1.9621      233.8012     0.9500      5.19613e-17            1.14014e-16        9.69938e-17        1.66391e-08        3.65098e-08        3.10595e-08
6000.0000     2.0338      233.8012     0.9500      5.19613e-17            1.14014e-16        9.69938e-17        2.31161e-08        5.07217e-08        4.31498e-08
7000.0000     2.1103      233.8012     0.9500      5.19613e-17            1.14014e-16        9.69938e-17        3.03227e-08        6.65345e-08        5.66021e-08
8000.0000     2.1733      233.8012     0.9500      5.19613e-17            1.14014e-16        9.69938e-17        3.8458e-08        8.4385e-08        7.17879e-08
9000.0000     2.2378      233.8012     0.9500      5.19613e-17            1.14014e-16        9.69938e-17        4.72689e-08        1.03718e-07        8.82348e-08
10000.0000     2.3500      233.8012     0.9500      5.19613e-17            1.14014e-16        9.69938e-17        5.55716e-08        1.21936e-07        1.03733e-07
12000.0000     2.4084      233.8012     0.9500      5.19613e-17            1.14014e-16        9.69938e-17        7.8084e-08        1.71333e-07        1.45756e-07
15000.0000     2.5455      233.8012     0.9500      5.19613e-17            1.14014e-16        9.69938e-17        1.15433e-07        2.53285e-07        2.15474e-07
20000.0000     2.7199      233.8012     0.9500      5.19613e-17            1.14014e-16        9.69938e-17        1.92057e-07        4.21413e-07        3.58504e-07
30000.0000     2.9704      233.8012     0.9500      5.19613e-17            1.14014e-16        9.69938e-17        3.95682e-07        8.68209e-07        7.38601e-07
50000.0000     3.2676      233.8012     0.9500      5.19613e-17            1.14014e-16        9.69938e-17        9.99161e-07        2.19237e-06        1.86509e-06
100000.0000     3.5459      233.8012     0.9500      5.19613e-17            1.14014e-16        9.69938e-17        3.6829e-06        8.08106e-06        6.8747e-06
