Mass(Gev)   Energy       Nbound      Beta       Phi(cm^3 s^-1 GeV^-2)   +dPhi             -dPhi            cs(cm^3 s^-1)        +dcs             -dcs
5.0000     0.0317      201.7012     0.9502      1.59334e-23            2.35963e-23        2.00646e-23        3.1535e-19        4.67011e-19        3.97113e-19
6.0000     0.0405      201.7012     0.9500      1.59334e-23            2.35963e-23        2.00646e-23        3.55853e-19        5.26992e-19        4.48117e-19
8.0000     0.0558      201.7012     0.9500      1.59334e-23            2.35963e-23        2.00646e-23        4.59559e-19        6.80573e-19        5.78711e-19
10.0000     0.0675      201.7012     0.9500      1.59334e-23            2.35963e-23        2.00646e-23        5.9306e-19        8.78279e-19        7.46826e-19
15.0000     0.0887      201.7012     0.9500      1.59334e-23            2.35963e-23        2.00646e-23        1.0156e-18        1.50402e-18        1.27891e-18
20.0000     0.1104      201.7012     0.9500      1.59334e-23            2.35963e-23        2.00646e-23        1.45112e-18        2.149e-18        1.82736e-18
25.0000     0.1209      201.7012     0.9500      1.59334e-23            2.35963e-23        2.00646e-23        2.07025e-18        3.06588e-18        2.60701e-18
30.0000     0.1367      201.7012     0.9500      1.59334e-23            2.35963e-23        2.00646e-23        2.63677e-18        3.90486e-18        3.32041e-18
40.0000     0.1626      201.7012     0.9500      1.59334e-23            2.35963e-23        2.00646e-23        3.93991e-18        5.83472e-18        4.96143e-18
50.0000     0.1759      201.7012     0.9500      1.59334e-23            2.35963e-23        2.00646e-23        5.69146e-18        8.42864e-18        7.16712e-18
60.0000     0.1950      201.7012     0.9500      1.59334e-23            2.35963e-23        2.00646e-23        7.39275e-18        1.09481e-17        9.30951e-18
70.0000     0.2069      201.7012     0.9500      1.59334e-23            2.35963e-23        2.00646e-23        9.48497e-18        1.40466e-17        1.19442e-17
80.0000     0.2257      201.7012     0.9500      1.59334e-23            2.35963e-23        2.00646e-23        1.13558e-17        1.68172e-17        1.43001e-17
90.0000     0.2371      201.7012     0.9500      1.59334e-23            2.35963e-23        2.00646e-23        1.36786e-17        2.02571e-17        1.72252e-17
100.0000     0.2486      201.7012     0.9500      1.59334e-23            2.35963e-23        2.00646e-23        1.61107e-17        2.38588e-17        2.02878e-17
110.0000     0.2490      201.7012     0.9500      1.59334e-23            2.35963e-23        2.00646e-23        1.94575e-17        2.88151e-17        2.45023e-17
120.0000     0.2561      201.7012     0.9500      1.59334e-23            2.35963e-23        2.00646e-23        2.25175e-17        3.33468e-17        2.83558e-17
130.0000     0.2643      201.7012     0.9500      1.59334e-23            2.35963e-23        2.00646e-23        2.56097e-17        3.79261e-17        3.22496e-17
140.0000     0.2691      201.7012     0.9500      1.59334e-23            2.35963e-23        2.00646e-23        2.91677e-17        4.31953e-17        3.67302e-17
150.0000     0.2787      201.7012     0.9500      1.59334e-23            2.35963e-23        2.00646e-23        3.23349e-17        4.78856e-17        4.07185e-17
160.0000     0.2882      201.7012     0.9500      1.59334e-23            2.35963e-23        2.00646e-23        3.55751e-17        5.26841e-17        4.47988e-17
180.0000     0.3036      201.7012     0.9500      1.59334e-23            2.35963e-23        2.00646e-23        4.27422e-17        6.32981e-17        5.38242e-17
200.0000     0.3193      201.7012     0.9500      1.59334e-23            2.35963e-23        2.00646e-23        5.01589e-17        7.42817e-17        6.31639e-17
220.0000     0.3301      201.7012     0.9500      1.59334e-23            2.35963e-23        2.00646e-23        5.87116e-17        8.69476e-17        7.3934e-17
240.0000     0.3463      201.7012     0.9500      1.59334e-23            2.35963e-23        2.00646e-23        6.65997e-17        9.86293e-17        8.38674e-17
260.0000     0.3624      201.7012     0.9500      1.59334e-23            2.35963e-23        2.00646e-23        7.46912e-17        1.10612e-16        9.40567e-17
280.0000     0.3725      201.7012     0.9500      1.59334e-23            2.35963e-23        2.00646e-23        8.42919e-17        1.2483e-16        1.06147e-16
300.0000     0.3893      201.7012     0.9500      1.59334e-23            2.35963e-23        2.00646e-23        9.25854e-17        1.37112e-16        1.1659e-16
330.0000     0.4111      201.7012     0.9500      1.59334e-23            2.35963e-23        2.00646e-23        1.06074e-16        1.57087e-16        1.33576e-16
360.0000     0.4330      201.7012     0.9500      1.59334e-23            2.35963e-23        2.00646e-23        1.19855e-16        1.77497e-16        1.50931e-16
400.0000     0.4606      201.7012     0.9500      1.59334e-23            2.35963e-23        2.00646e-23        1.39119e-16        2.06025e-16        1.75189e-16
450.0000     0.4916      201.7012     0.9500      1.59334e-23            2.35963e-23        2.00646e-23        1.64957e-16        2.44289e-16        2.07726e-16
500.0000     0.5115      201.7012     0.9500      1.59334e-23            2.35963e-23        2.00646e-23        1.95713e-16        2.89837e-16        2.46457e-16
550.0000     0.5423      201.7012     0.9500      1.59334e-23            2.35963e-23        2.00646e-23        2.23361e-16        3.30781e-16        2.81273e-16
600.0000     0.5731      201.7012     0.9500      1.59334e-23            2.35963e-23        2.00646e-23        2.51532e-16        3.725e-16        3.16747e-16
650.0000     0.6044      201.7012     0.9500      1.59334e-23            2.35963e-23        2.00646e-23        2.7995e-16        4.14585e-16        3.52534e-16
700.0000     0.6210      201.7012     0.9500      1.59334e-23            2.35963e-23        2.00646e-23        3.15983e-16        4.67948e-16        3.9791e-16
750.0000     0.6520      201.7012     0.9500      1.59334e-23            2.35963e-23        2.00646e-23        3.45461e-16        5.11603e-16        4.3503e-16
800.0000     0.6840      201.7012     0.9500      1.59334e-23            2.35963e-23        2.00646e-23        3.74686e-16        5.54883e-16        4.71833e-16
900.0000     0.7308      201.7012     0.9500      1.59334e-23            2.35963e-23        2.00646e-23        4.43865e-16        6.57331e-16        5.58948e-16
1000.0000     0.7872      201.7012     0.9500      1.59334e-23            2.35963e-23        2.00646e-23        5.08689e-16        7.53332e-16        6.4058e-16
1100.0000     0.8042      201.7012     0.9500      1.59334e-23            2.35963e-23        2.00646e-23        6.02495e-16        8.92251e-16        7.58706e-16
1200.0000     0.8490      201.7012     0.9500      1.59334e-23            2.35963e-23        2.00646e-23        6.79173e-16        1.00581e-15        8.55265e-16
1300.0000     0.8934      201.7012     0.9500      1.59334e-23            2.35963e-23        2.00646e-23        7.57494e-16        1.12179e-15        9.53893e-16
1500.0000     0.9607      201.7012     0.9500      1.59334e-23            2.35963e-23        2.00646e-23        9.37857e-16        1.3889e-15        1.18102e-15
1700.0000     1.0249      201.7012     0.9500      1.59334e-23            2.35963e-23        2.00646e-23        1.12918e-15        1.67224e-15        1.42195e-15
2000.0000     1.1285      201.7012     0.9500      1.59334e-23            2.35963e-23        2.00646e-23        1.4194e-15        2.10203e-15        1.78741e-15
2500.0000     1.2380      201.7012     0.9500      1.59334e-23            2.35963e-23        2.00646e-23        2.02161e-15        2.99386e-15        2.54576e-15
3000.0000     1.3603      201.7012     0.9500      1.59334e-23            2.35963e-23        2.00646e-23        2.64945e-15        3.92364e-15        3.33639e-15
4000.0000     1.5574      201.7012     0.9500      1.59334e-23            2.35963e-23        2.00646e-23        4.11416e-15        6.09277e-15        5.18085e-15
5000.0000     1.6869      201.7012     0.9500      1.59334e-23            2.35963e-23        2.00646e-23        5.93482e-15        8.78904e-15        7.47357e-15
6000.0000     1.8209      201.7012     0.9500      1.59334e-23            2.35963e-23        2.00646e-23        7.91722e-15        1.17248e-14        9.96996e-15
7000.0000     1.9217      201.7012     0.9500      1.59334e-23            2.35963e-23        2.00646e-23        1.02107e-14        1.51213e-14        1.28581e-14
8000.0000     2.0297      201.7012     0.9500      1.59334e-23            2.35963e-23        2.00646e-23        1.26269e-14        1.86996e-14        1.59008e-14
9000.0000     2.1115      201.7012     0.9500      1.59334e-23            2.35963e-23        2.00646e-23        1.53618e-14        2.27497e-14        1.93447e-14
10000.0000     2.2205      201.7012     0.9500      1.59334e-23            2.35963e-23        2.00646e-23        1.80341e-14        2.67072e-14        2.27099e-14
12000.0000     2.3067      201.7012     0.9500      1.59334e-23            2.35963e-23        2.00646e-23        2.49987e-14        3.70212e-14        3.14802e-14
15000.0000     2.4632      201.7012     0.9500      1.59334e-23            2.35963e-23        2.00646e-23        3.6579e-14        5.41708e-14        4.6063e-14
20000.0000     2.6583      201.7012     0.9500      1.59334e-23            2.35963e-23        2.00646e-23        6.02567e-14        8.92358e-14        7.58798e-14
30000.0000     2.9224      201.7012     0.9500      1.59334e-23            2.35963e-23        2.00646e-23        1.23325e-13        1.82636e-13        1.553e-13
50000.0000     3.2355      201.7012     0.9500      1.59334e-23            2.35963e-23        2.00646e-23        3.09417e-13        4.58224e-13        3.89641e-13
100000.0000     3.5335      201.7012     0.9500      1.59334e-23            2.35963e-23        2.00646e-23        1.13331e-12        1.67835e-12        1.42715e-12
