Mass(Gev)   Energy       Nbound      Beta       Phi(cm^3 s^-1 GeV^-2)   +dPhi             -dPhi            cs(cm^3 s^-1)        +dcs             -dcs
5.0000     0.4106      237.9112     0.9501      5.69182e-17            1.62708e-15        5.61112e-17        8.709e-14        2.48958e-12        8.58552e-14
6.0000     0.5772      237.9112     0.9500      5.69182e-17            1.62708e-15        5.61112e-17        8.92171e-14        2.55038e-12        8.79522e-14
8.0000     0.8456      237.9112     0.9500      5.69182e-17            1.62708e-15        5.61112e-17        1.08273e-13        3.09511e-12        1.06738e-13
10.0000     1.0265      237.9112     0.9500      5.69182e-17            1.62708e-15        5.61112e-17        1.39355e-13        3.98363e-12        1.37379e-13
15.0000     1.2878      237.9112     0.9500      5.69182e-17            1.62708e-15        5.61112e-17        2.4993e-13        7.14456e-12        2.46386e-13
20.0000     1.5234      237.9112     0.9500      5.69182e-17            1.62708e-15        5.61112e-17        3.75619e-13        1.07376e-11        3.70294e-13
25.0000     1.5983      237.9112     0.9500      5.69182e-17            1.62708e-15        5.61112e-17        5.59384e-13        1.59907e-11        5.51453e-13
30.0000     1.7309      237.9112     0.9500      5.69182e-17            1.62708e-15        5.61112e-17        7.43796e-13        2.12624e-11        7.3325e-13
40.0000     1.9027      237.9112     0.9500      5.69182e-17            1.62708e-15        5.61112e-17        1.20296e-12        3.43881e-11        1.1859e-12
50.0000     1.9585      237.9112     0.9500      5.69182e-17            1.62708e-15        5.61112e-17        1.82608e-12        5.22007e-11        1.80018e-12
60.0000     2.0509      237.9112     0.9500      5.69182e-17            1.62708e-15        5.61112e-17        2.51104e-12        7.17812e-11        2.47544e-12
70.0000     2.0953      237.9112     0.9500      5.69182e-17            1.62708e-15        5.61112e-17        3.3454e-12        9.56326e-11        3.29797e-12
80.0000     2.1677      237.9112     0.9500      5.69182e-17            1.62708e-15        5.61112e-17        4.22341e-12        1.20732e-10        4.16353e-12
90.0000     2.2023      237.9112     0.9500      5.69182e-17            1.62708e-15        5.61112e-17        5.26135e-12        1.50402e-10        5.18675e-12
100.0000     2.2332      237.9112     0.9500      5.69182e-17            1.62708e-15        5.61112e-17        6.40574e-12        1.83116e-10        6.31492e-12
110.0000     2.2340      237.9112     0.9500      5.69182e-17            1.62708e-15        5.61112e-17        7.74803e-12        2.21487e-10        7.63818e-12
120.0000     2.2570      237.9112     0.9500      5.69182e-17            1.62708e-15        5.61112e-17        9.12678e-12        2.60901e-10        8.99738e-12
130.0000     2.2784      237.9112     0.9500      5.69182e-17            1.62708e-15        5.61112e-17        1.06109e-11        3.03327e-10        1.04605e-11
140.0000     2.2834      237.9112     0.9500      5.69182e-17            1.62708e-15        5.61112e-17        1.22789e-11        3.51008e-10        1.21048e-11
150.0000     2.2998      237.9112     0.9500      5.69182e-17            1.62708e-15        5.61112e-17        1.39952e-11        4.0007e-10        1.37968e-11
160.0000     2.3056      237.9112     0.9500      5.69182e-17            1.62708e-15        5.61112e-17        1.58839e-11        4.54061e-10        1.56587e-11
180.0000     2.3131      237.9112     0.9500      5.69182e-17            1.62708e-15        5.61112e-17        2.0037e-11        5.72783e-10        1.97529e-11
200.0000     2.3119      237.9112     0.9500      5.69182e-17            1.62708e-15        5.61112e-17        2.47506e-11        7.07528e-10        2.43997e-11
220.0000     2.3214      237.9112     0.9500      5.69182e-17            1.62708e-15        5.61112e-17        2.98252e-11        8.52592e-10        2.94023e-11
240.0000     2.3113      237.9112     0.9500      5.69182e-17            1.62708e-15        5.61112e-17        3.56503e-11        1.01911e-09        3.51448e-11
260.0000     2.2903      237.9112     0.9500      5.69182e-17            1.62708e-15        5.61112e-17        4.2223e-11        1.207e-09        4.16243e-11
280.0000     2.3002      237.9112     0.9500      5.69182e-17            1.62708e-15        5.61112e-17        4.87581e-11        1.39381e-09        4.80667e-11
300.0000     2.2733      237.9112     0.9500      5.69182e-17            1.62708e-15        5.61112e-17        5.6634e-11        1.61896e-09        5.58311e-11
330.0000     2.2424      237.9112     0.9500      5.69182e-17            1.62708e-15        5.61112e-17        6.94703e-11        1.9859e-09        6.84853e-11
360.0000     2.2052      237.9112     0.9500      5.69182e-17            1.62708e-15        5.61112e-17        8.40729e-11        2.40333e-09        8.28809e-11
400.0000     2.1674      237.9112     0.9500      5.69182e-17            1.62708e-15        5.61112e-17        1.05603e-10        3.01879e-09        1.04106e-10
450.0000     2.1255      237.9112     0.9500      5.69182e-17            1.62708e-15        5.61112e-17        1.36289e-10        3.89598e-09        1.34356e-10
500.0000     2.1445      237.9112     0.9500      5.69182e-17            1.62708e-15        5.61112e-17        1.66762e-10        4.76711e-09        1.64398e-10
550.0000     2.0992      237.9112     0.9500      5.69182e-17            1.62708e-15        5.61112e-17        2.06138e-10        5.89272e-09        2.03216e-10
600.0000     2.0500      237.9112     0.9500      5.69182e-17            1.62708e-15        5.61112e-17        2.51214e-10        7.18126e-09        2.47652e-10
650.0000     1.9984      237.9112     0.9500      5.69182e-17            1.62708e-15        5.61112e-17        3.02433e-10        8.64543e-09        2.98145e-10
700.0000     2.0148      237.9112     0.9500      5.69182e-17            1.62708e-15        5.61112e-17        3.47894e-10        9.94498e-09        3.42961e-10
750.0000     1.9629      237.9112     0.9500      5.69182e-17            1.62708e-15        5.61112e-17        4.09931e-10        1.17184e-08        4.04119e-10
800.0000     1.9106      237.9112     0.9500      5.69182e-17            1.62708e-15        5.61112e-17        4.7919e-10        1.36982e-08        4.72396e-10
900.0000     1.8739      237.9112     0.9500      5.69182e-17            1.62708e-15        5.61112e-17        6.18332e-10        1.76758e-08        6.09565e-10
1000.0000     1.9280      237.9112     0.9500      5.69182e-17            1.62708e-15        5.61112e-17        7.41953e-10        2.12097e-08        7.31434e-10
1100.0000     1.8636      237.9112     0.9500      5.69182e-17            1.62708e-15        5.61112e-17        9.28786e-10        2.65505e-08        9.15617e-10
1200.0000     1.8281      237.9112     0.9500      5.69182e-17            1.62708e-15        5.61112e-17        1.12679e-09        3.22107e-08        1.11081e-09
1300.0000     1.7945      237.9112     0.9500      5.69182e-17            1.62708e-15        5.61112e-17        1.34722e-09        3.85121e-08        1.32812e-09
1500.0000     1.7857      237.9112     0.9500      5.69182e-17            1.62708e-15        5.61112e-17        1.80246e-09        5.15256e-08        1.7769e-09
1700.0000     1.7763      237.9112     0.9500      5.69182e-17            1.62708e-15        5.61112e-17        2.32735e-09        6.65303e-08        2.29435e-09
2000.0000     1.7452      237.9112     0.9500      5.69182e-17            1.62708e-15        5.61112e-17        3.27869e-09        9.37255e-08        3.2322e-09
2500.0000     1.7930      237.9112     0.9500      5.69182e-17            1.62708e-15        5.61112e-17        4.98638e-09        1.42542e-07        4.91568e-09
3000.0000     1.8055      237.9112     0.9500      5.69182e-17            1.62708e-15        5.61112e-17        7.13088e-09        2.03845e-07        7.02977e-09
4000.0000     1.8675      237.9112     0.9500      5.69182e-17            1.62708e-15        5.61112e-17        1.22562e-08        3.50358e-07        1.20824e-08
5000.0000     1.9621      237.9112     0.9500      5.69182e-17            1.62708e-15        5.61112e-17        1.82265e-08        5.21026e-07        1.7968e-08
6000.0000     2.0338      237.9112     0.9500      5.69182e-17            1.62708e-15        5.61112e-17        2.53213e-08        7.23842e-07        2.49623e-08
7000.0000     2.1103      237.9112     0.9500      5.69182e-17            1.62708e-15        5.61112e-17        3.32154e-08        9.49505e-07        3.27445e-08
8000.0000     2.1733      237.9112     0.9500      5.69182e-17            1.62708e-15        5.61112e-17        4.21268e-08        1.20425e-06        4.15295e-08
9000.0000     2.2378      237.9112     0.9500      5.69182e-17            1.62708e-15        5.61112e-17        5.17782e-08        1.48015e-06        5.10441e-08
10000.0000     2.3500      237.9112     0.9500      5.69182e-17            1.62708e-15        5.61112e-17        6.0873e-08        1.74013e-06        6.00099e-08
12000.0000     2.4084      237.9112     0.9500      5.69182e-17            1.62708e-15        5.61112e-17        8.55329e-08        2.44507e-06        8.43202e-08
15000.0000     2.5455      237.9112     0.9500      5.69182e-17            1.62708e-15        5.61112e-17        1.26445e-07        3.61459e-06        1.24652e-07
20000.0000     2.7199      237.9112     0.9500      5.69182e-17            1.62708e-15        5.61112e-17        2.10379e-07        6.01394e-06        2.07396e-07
30000.0000     2.9704      237.9112     0.9500      5.69182e-17            1.62708e-15        5.61112e-17        4.33428e-07        1.23901e-05        4.27283e-07
50000.0000     3.2676      237.9112     0.9500      5.69182e-17            1.62708e-15        5.61112e-17        1.09448e-06        3.1287e-05        1.07896e-06
100000.0000     3.5459      237.9112     0.9500      5.69182e-17            1.62708e-15        5.61112e-17        4.03424e-06        0.000115324        3.97704e-06
