Mass(Gev)   Energy       Nbound      Beta       Phi(cm^3 s^-1 GeV^-2)   +dPhi             -dPhi            cs(cm^3 s^-1)        +dcs             -dcs
5.0000     0.0317      113.6011     0.9505      7.45863e-33            1.24176e-32        3.92779e-33        1.47619e-28        2.45767e-28        7.77378e-29
6.0000     0.0405      113.6011     0.9500      7.45863e-33            1.24176e-32        3.92779e-33        1.66579e-28        2.77332e-28        8.77222e-29
8.0000     0.0558      113.6011     0.9500      7.45863e-33            1.24176e-32        3.92779e-33        2.15125e-28        3.58155e-28        1.13287e-28
10.0000     0.0675      113.6011     0.9500      7.45863e-33            1.24176e-32        3.92779e-33        2.77619e-28        4.62198e-28        1.46197e-28
15.0000     0.0887      113.6011     0.9500      7.45863e-33            1.24176e-32        3.92779e-33        4.75412e-28        7.91499e-28        2.50357e-28
20.0000     0.1104      113.6011     0.9500      7.45863e-33            1.24176e-32        3.92779e-33        6.79285e-28        1.13092e-27        3.57719e-28
25.0000     0.1209      113.6011     0.9500      7.45863e-33            1.24176e-32        3.92779e-33        9.69107e-28        1.61344e-27        5.10342e-28
30.0000     0.1367      113.6011     0.9500      7.45863e-33            1.24176e-32        3.92779e-33        1.2343e-27        2.05495e-27        6.49996e-28
40.0000     0.1626      113.6011     0.9500      7.45863e-33            1.24176e-32        3.92779e-33        1.84432e-27        3.07055e-27        9.71238e-28
50.0000     0.1759      113.6011     0.9500      7.45863e-33            1.24176e-32        3.92779e-33        2.66424e-27        4.43561e-27        1.40302e-27
60.0000     0.1950      113.6011     0.9500      7.45863e-33            1.24176e-32        3.92779e-33        3.46064e-27        5.7615e-27        1.82241e-27
70.0000     0.2069      113.6011     0.9500      7.45863e-33            1.24176e-32        3.92779e-33        4.44003e-27        7.39206e-27        2.33816e-27
80.0000     0.2257      113.6011     0.9500      7.45863e-33            1.24176e-32        3.92779e-33        5.31581e-27        8.85012e-27        2.79936e-27
90.0000     0.2371      113.6011     0.9500      7.45863e-33            1.24176e-32        3.92779e-33        6.40313e-27        1.06604e-26        3.37195e-27
100.0000     0.2486      113.6011     0.9500      7.45863e-33            1.24176e-32        3.92779e-33        7.54163e-27        1.25558e-26        3.9715e-27
110.0000     0.2490      113.6011     0.9500      7.45863e-33            1.24176e-32        3.92779e-33        9.10829e-27        1.51641e-26        4.79652e-27
120.0000     0.2561      113.6011     0.9500      7.45863e-33            1.24176e-32        3.92779e-33        1.05407e-26        1.75489e-26        5.55085e-27
130.0000     0.2643      113.6011     0.9500      7.45863e-33            1.24176e-32        3.92779e-33        1.19882e-26        1.99588e-26        6.31311e-27
140.0000     0.2691      113.6011     0.9500      7.45863e-33            1.24176e-32        3.92779e-33        1.36538e-26        2.27317e-26        7.19021e-27
150.0000     0.2787      113.6011     0.9500      7.45863e-33            1.24176e-32        3.92779e-33        1.51364e-26        2.52e-26        7.97096e-27
160.0000     0.2882      113.6011     0.9500      7.45863e-33            1.24176e-32        3.92779e-33        1.66531e-26        2.77252e-26        8.7697e-27
180.0000     0.3036      113.6011     0.9500      7.45863e-33            1.24176e-32        3.92779e-33        2.00081e-26        3.33109e-26        1.05365e-26
200.0000     0.3193      113.6011     0.9500      7.45863e-33            1.24176e-32        3.92779e-33        2.348e-26        3.90911e-26        1.23648e-26
220.0000     0.3301      113.6011     0.9500      7.45863e-33            1.24176e-32        3.92779e-33        2.74836e-26        4.57566e-26        1.44731e-26
240.0000     0.3463      113.6011     0.9500      7.45863e-33            1.24176e-32        3.92779e-33        3.11761e-26        5.19041e-26        1.64177e-26
260.0000     0.3624      113.6011     0.9500      7.45863e-33            1.24176e-32        3.92779e-33        3.49638e-26        5.82101e-26        1.84123e-26
280.0000     0.3725      113.6011     0.9500      7.45863e-33            1.24176e-32        3.92779e-33        3.9458e-26        6.56924e-26        2.0779e-26
300.0000     0.3893      113.6011     0.9500      7.45863e-33            1.24176e-32        3.92779e-33        4.33403e-26        7.21559e-26        2.28235e-26
330.0000     0.4111      113.6011     0.9500      7.45863e-33            1.24176e-32        3.92779e-33        4.96543e-26        8.26678e-26        2.61485e-26
360.0000     0.4330      113.6011     0.9500      7.45863e-33            1.24176e-32        3.92779e-33        5.61057e-26        9.34086e-26        2.95458e-26
400.0000     0.4606      113.6011     0.9500      7.45863e-33            1.24176e-32        3.92779e-33        6.51233e-26        1.08422e-25        3.42946e-26
450.0000     0.4916      113.6011     0.9500      7.45863e-33            1.24176e-32        3.92779e-33        7.72184e-26        1.28558e-25        4.0664e-26
500.0000     0.5115      113.6011     0.9500      7.45863e-33            1.24176e-32        3.92779e-33        9.16157e-26        1.52528e-25        4.82457e-26
550.0000     0.5423      113.6011     0.9500      7.45863e-33            1.24176e-32        3.92779e-33        1.04558e-25        1.74075e-25        5.50613e-26
600.0000     0.5731      113.6011     0.9500      7.45863e-33            1.24176e-32        3.92779e-33        1.17745e-25        1.9603e-25        6.20057e-26
650.0000     0.6044      113.6011     0.9500      7.45863e-33            1.24176e-32        3.92779e-33        1.31048e-25        2.18177e-25        6.90112e-26
700.0000     0.6210      113.6011     0.9500      7.45863e-33            1.24176e-32        3.92779e-33        1.47916e-25        2.4626e-25        7.78939e-26
750.0000     0.6520      113.6011     0.9500      7.45863e-33            1.24176e-32        3.92779e-33        1.61714e-25        2.69233e-25        8.51605e-26
800.0000     0.6840      113.6011     0.9500      7.45863e-33            1.24176e-32        3.92779e-33        1.75395e-25        2.9201e-25        9.23649e-26
900.0000     0.7308      113.6011     0.9500      7.45863e-33            1.24176e-32        3.92779e-33        2.07778e-25        3.45923e-25        1.09418e-25
1000.0000     0.7872      113.6011     0.9500      7.45863e-33            1.24176e-32        3.92779e-33        2.38124e-25        3.96444e-25        1.25398e-25
1100.0000     0.8042      113.6011     0.9500      7.45863e-33            1.24176e-32        3.92779e-33        2.82035e-25        4.69551e-25        1.48522e-25
1200.0000     0.8490      113.6011     0.9500      7.45863e-33            1.24176e-32        3.92779e-33        3.17929e-25        5.2931e-25        1.67425e-25
1300.0000     0.8934      113.6011     0.9500      7.45863e-33            1.24176e-32        3.92779e-33        3.54592e-25        5.90348e-25        1.86732e-25
1500.0000     0.9607      113.6011     0.9500      7.45863e-33            1.24176e-32        3.92779e-33        4.39022e-25        7.30913e-25        2.31193e-25
1700.0000     1.0249      113.6011     0.9500      7.45863e-33            1.24176e-32        3.92779e-33        5.28584e-25        8.80023e-25        2.78358e-25
2000.0000     1.1285      113.6011     0.9500      7.45863e-33            1.24176e-32        3.92779e-33        6.64438e-25        1.1062e-24        3.499e-25
2500.0000     1.2380      113.6011     0.9500      7.45863e-33            1.24176e-32        3.92779e-33        9.4634e-25        1.57553e-24        4.98352e-25
3000.0000     1.3603      113.6011     0.9500      7.45863e-33            1.24176e-32        3.92779e-33        1.24024e-24        2.06484e-24        6.53123e-25
4000.0000     1.5574      113.6011     0.9500      7.45863e-33            1.24176e-32        3.92779e-33        1.92589e-24        3.20635e-24        1.01419e-24
5000.0000     1.6869      113.6011     0.9500      7.45863e-33            1.24176e-32        3.92779e-33        2.77816e-24        4.62527e-24        1.46301e-24
6000.0000     1.8209      113.6011     0.9500      7.45863e-33            1.24176e-32        3.92779e-33        3.70615e-24        6.17024e-24        1.95169e-24
7000.0000     1.9217      113.6011     0.9500      7.45863e-33            1.24176e-32        3.92779e-33        4.77974e-24        7.95764e-24        2.51706e-24
8000.0000     2.0297      113.6011     0.9500      7.45863e-33            1.24176e-32        3.92779e-33        5.91082e-24        9.84073e-24        3.1127e-24
9000.0000     2.1115      113.6011     0.9500      7.45863e-33            1.24176e-32        3.92779e-33        7.19104e-24        1.19721e-23        3.78687e-24
10000.0000     2.2205      113.6011     0.9500      7.45863e-33            1.24176e-32        3.92779e-33        8.44198e-24        1.40548e-23        4.44563e-24
12000.0000     2.3067      113.6011     0.9500      7.45863e-33            1.24176e-32        3.92779e-33        1.17022e-23        1.94826e-23        6.16248e-24
15000.0000     2.4632      113.6011     0.9500      7.45863e-33            1.24176e-32        3.92779e-33        1.71231e-23        2.85076e-23        9.01718e-24
20000.0000     2.6583      113.6011     0.9500      7.45863e-33            1.24176e-32        3.92779e-33        2.82069e-23        4.69607e-23        1.4854e-23
30000.0000     2.9224      113.6011     0.9500      7.45863e-33            1.24176e-32        3.92779e-33        5.77301e-23        9.61129e-23        3.04012e-23
50000.0000     3.2355      113.6011     0.9500      7.45863e-33            1.24176e-32        3.92779e-33        1.44842e-22        2.41143e-22        7.62752e-23
100000.0000     3.5335      113.6011     0.9500      7.45863e-33            1.24176e-32        3.92779e-33        5.30515e-22        8.83237e-22        2.79374e-22
