Mass(Gev)   Energy       Nbound      Beta       Phi(cm^3 s^-1 GeV^-2)   +dPhi             -dPhi            cs(cm^3 s^-1)        +dcs             -dcs
5.0000     0.4106      346.3011     0.9501      3.53712e-30            6.43168e-30        2.43818e-30        5.41211e-27        9.84105e-27        3.73064e-27
6.0000     0.5772      346.3011     0.9500      3.53712e-30            6.43168e-30        2.43818e-30        5.5443e-27        1.00814e-26        3.82176e-27
8.0000     0.8456      346.3011     0.9500      3.53712e-30            6.43168e-30        2.43818e-30        6.72849e-27        1.22347e-26        4.63804e-27
10.0000     1.0265      346.3011     0.9500      3.53712e-30            6.43168e-30        2.43818e-30        8.66004e-27        1.57469e-26        5.96948e-27
15.0000     1.2878      346.3011     0.9500      3.53712e-30            6.43168e-30        2.43818e-30        1.55316e-26        2.82417e-26        1.07062e-26
20.0000     1.5234      346.3011     0.9500      3.53712e-30            6.43168e-30        2.43818e-30        2.33425e-26        4.24444e-26        1.60903e-26
25.0000     1.5983      346.3011     0.9500      3.53712e-30            6.43168e-30        2.43818e-30        3.47623e-26        6.32096e-26        2.39621e-26
30.0000     1.7309      346.3011     0.9500      3.53712e-30            6.43168e-30        2.43818e-30        4.62224e-26        8.40479e-26        3.18617e-26
40.0000     1.9027      346.3011     0.9500      3.53712e-30            6.43168e-30        2.43818e-30        7.47565e-26        1.35933e-25        5.15307e-26
50.0000     1.9585      346.3011     0.9500      3.53712e-30            6.43168e-30        2.43818e-30        1.13479e-25        2.06344e-25        7.82229e-26
60.0000     2.0509      346.3011     0.9500      3.53712e-30            6.43168e-30        2.43818e-30        1.56046e-25        2.83744e-25        1.07564e-25
70.0000     2.0953      346.3011     0.9500      3.53712e-30            6.43168e-30        2.43818e-30        2.07896e-25        3.78026e-25        1.43306e-25
80.0000     2.1677      346.3011     0.9500      3.53712e-30            6.43168e-30        2.43818e-30        2.62459e-25        4.77239e-25        1.80917e-25
90.0000     2.2023      346.3011     0.9500      3.53712e-30            6.43168e-30        2.43818e-30        3.26961e-25        5.94525e-25        2.25379e-25
100.0000     2.2332      346.3011     0.9500      3.53712e-30            6.43168e-30        2.43818e-30        3.98078e-25        7.2384e-25        2.744e-25
110.0000     2.2340      346.3011     0.9500      3.53712e-30            6.43168e-30        2.43818e-30        4.81493e-25        8.75516e-25        3.31899e-25
120.0000     2.2570      346.3011     0.9500      3.53712e-30            6.43168e-30        2.43818e-30        5.67174e-25        1.03131e-24        3.9096e-25
130.0000     2.2784      346.3011     0.9500      3.53712e-30            6.43168e-30        2.43818e-30        6.59405e-25        1.19902e-24        4.54537e-25
140.0000     2.2834      346.3011     0.9500      3.53712e-30            6.43168e-30        2.43818e-30        7.6306e-25        1.3875e-24        5.25987e-25
150.0000     2.2998      346.3011     0.9500      3.53712e-30            6.43168e-30        2.43818e-30        8.69716e-25        1.58144e-24        5.99507e-25
160.0000     2.3056      346.3011     0.9500      3.53712e-30            6.43168e-30        2.43818e-30        9.87086e-25        1.79486e-24        6.80412e-25
180.0000     2.3131      346.3011     0.9500      3.53712e-30            6.43168e-30        2.43818e-30        1.24518e-24        2.26415e-24        8.58317e-25
200.0000     2.3119      346.3011     0.9500      3.53712e-30            6.43168e-30        2.43818e-30        1.5381e-24        2.79679e-24        1.06023e-24
220.0000     2.3214      346.3011     0.9500      3.53712e-30            6.43168e-30        2.43818e-30        1.85346e-24        3.37021e-24        1.27761e-24
240.0000     2.3113      346.3011     0.9500      3.53712e-30            6.43168e-30        2.43818e-30        2.21545e-24        4.02843e-24        1.52714e-24
260.0000     2.2903      346.3011     0.9500      3.53712e-30            6.43168e-30        2.43818e-30        2.6239e-24        4.77114e-24        1.80869e-24
280.0000     2.3002      346.3011     0.9500      3.53712e-30            6.43168e-30        2.43818e-30        3.03002e-24        5.50959e-24        2.08863e-24
300.0000     2.2733      346.3011     0.9500      3.53712e-30            6.43168e-30        2.43818e-30        3.51946e-24        6.39956e-24        2.42601e-24
330.0000     2.2424      346.3011     0.9500      3.53712e-30            6.43168e-30        2.43818e-30        4.31715e-24        7.85004e-24        2.97587e-24
360.0000     2.2052      346.3011     0.9500      3.53712e-30            6.43168e-30        2.43818e-30        5.22462e-24        9.50011e-24        3.6014e-24
400.0000     2.1674      346.3011     0.9500      3.53712e-30            6.43168e-30        2.43818e-30        6.56257e-24        1.1933e-23        4.52367e-24
450.0000     2.1255      346.3011     0.9500      3.53712e-30            6.43168e-30        2.43818e-30        8.4695e-24        1.54004e-23        5.83814e-24
500.0000     2.1445      346.3011     0.9500      3.53712e-30            6.43168e-30        2.43818e-30        1.03633e-23        1.88439e-23        7.14353e-24
550.0000     2.0992      346.3011     0.9500      3.53712e-30            6.43168e-30        2.43818e-30        1.28102e-23        2.32933e-23        8.83027e-24
600.0000     2.0500      346.3011     0.9500      3.53712e-30            6.43168e-30        2.43818e-30        1.56114e-23        2.83868e-23        1.07611e-23
650.0000     1.9984      346.3011     0.9500      3.53712e-30            6.43168e-30        2.43818e-30        1.87944e-23        3.41745e-23        1.29552e-23
700.0000     2.0148      346.3011     0.9500      3.53712e-30            6.43168e-30        2.43818e-30        2.16195e-23        3.93115e-23        1.49026e-23
750.0000     1.9629      346.3011     0.9500      3.53712e-30            6.43168e-30        2.43818e-30        2.54747e-23        4.63216e-23        1.756e-23
800.0000     1.9106      346.3011     0.9500      3.53712e-30            6.43168e-30        2.43818e-30        2.97787e-23        5.41478e-23        2.05269e-23
900.0000     1.8739      346.3011     0.9500      3.53712e-30            6.43168e-30        2.43818e-30        3.84256e-23        6.98706e-23        2.64872e-23
1000.0000     1.9280      346.3011     0.9500      3.53712e-30            6.43168e-30        2.43818e-30        4.61079e-23        8.38396e-23        3.17828e-23
1100.0000     1.8636      346.3011     0.9500      3.53712e-30            6.43168e-30        2.43818e-30        5.77184e-23        1.04951e-22        3.9786e-23
1200.0000     1.8281      346.3011     0.9500      3.53712e-30            6.43168e-30        2.43818e-30        7.00231e-23        1.27326e-22        4.82679e-23
1300.0000     1.7945      346.3011     0.9500      3.53712e-30            6.43168e-30        2.43818e-30        8.37217e-23        1.52234e-22        5.77105e-23
1500.0000     1.7857      346.3011     0.9500      3.53712e-30            6.43168e-30        2.43818e-30        1.12012e-22        2.03675e-22        7.72112e-23
1700.0000     1.7763      346.3011     0.9500      3.53712e-30            6.43168e-30        2.43818e-30        1.44631e-22        2.62987e-22        9.96958e-23
2000.0000     1.7452      346.3011     0.9500      3.53712e-30            6.43168e-30        2.43818e-30        2.03751e-22        3.70487e-22        1.40448e-22
2500.0000     1.7930      346.3011     0.9500      3.53712e-30            6.43168e-30        2.43818e-30        3.09873e-22        5.63454e-22        2.136e-22
3000.0000     1.8055      346.3011     0.9500      3.53712e-30            6.43168e-30        2.43818e-30        4.43141e-22        8.05779e-22        3.05463e-22
4000.0000     1.8675      346.3011     0.9500      3.53712e-30            6.43168e-30        2.43818e-30        7.61645e-22        1.38493e-21        5.25012e-22
5000.0000     1.9621      346.3011     0.9500      3.53712e-30            6.43168e-30        2.43818e-30        1.13266e-21        2.05956e-21        7.8076e-22
6000.0000     2.0338      346.3011     0.9500      3.53712e-30            6.43168e-30        2.43818e-30        1.57357e-21        2.86127e-21        1.08468e-21
7000.0000     2.1103      346.3011     0.9500      3.53712e-30            6.43168e-30        2.43818e-30        2.06414e-21        3.75329e-21        1.42284e-21
8000.0000     2.1733      346.3011     0.9500      3.53712e-30            6.43168e-30        2.43818e-30        2.61792e-21        4.76027e-21        1.80457e-21
9000.0000     2.2378      346.3011     0.9500      3.53712e-30            6.43168e-30        2.43818e-30        3.2177e-21        5.85086e-21        2.218e-21
10000.0000     2.3500      346.3011     0.9500      3.53712e-30            6.43168e-30        2.43818e-30        3.78288e-21        6.87856e-21        2.60759e-21
12000.0000     2.4084      346.3011     0.9500      3.53712e-30            6.43168e-30        2.43818e-30        5.31535e-21        9.66509e-21        3.66394e-21
15000.0000     2.5455      346.3011     0.9500      3.53712e-30            6.43168e-30        2.43818e-30        7.85779e-21        1.42881e-20        5.41648e-21
20000.0000     2.7199      346.3011     0.9500      3.53712e-30            6.43168e-30        2.43818e-30        1.30737e-20        2.37725e-20        9.0119e-21
30000.0000     2.9704      346.3011     0.9500      3.53712e-30            6.43168e-30        2.43818e-30        2.69349e-20        4.89768e-20        1.85666e-20
50000.0000     3.2676      346.3011     0.9500      3.53712e-30            6.43168e-30        2.43818e-30        6.8015e-20        1.23674e-19        4.68837e-20
100000.0000     3.5459      346.3011     0.9500      3.53712e-30            6.43168e-30        2.43818e-30        2.50703e-19        4.55863e-19        1.72813e-19
